Time (s),X (µT),Y (µT),Z (µT)
0.005703458329662681,-32.183841705322266,13.286041259765625,-29.4781494140625
0.02559945832763333,-32.326168060302734,13.42193603515625,-29.23895263671875
0.04549645833321847,-32.564369201660156,13.537612915039062,-28.76507568359375
0.0653934583242517,-32.697509765625,13.687301635742188,-28.38604736328125
0.08528945832222234,-32.9852294921875,13.561767578125,-28.26837158203125
0.10518645832780749,-33.12255859375,13.352859497070312,-28.2313232421875
0.12508345833339263,-33.395538330078125,13.443496704101562,-28.00048828125
0.14497945833136328,-33.55187225341797,13.672821044921875,-27.59283447265625
0.1648764583223965,-33.73887634277344,13.798736572265625,-27.3179931640625
0.18477345832798164,-33.85741424560547,13.790573120117188,-27.13885498046875
0.2046694583259523,-34.0189208984375,13.820388793945312,-26.988037109375
0.22456645833153743,-34.056617736816406,13.822723388671875,-26.90618896484375
0.24446345832257066,-34.171173095703125,13.720718383789062,-26.91754150390625
0.2643604583281558,-34.3934326171875,13.557037353515625,-26.56982421875
0.28425645832612645,-34.60509490966797,13.57562255859375,-26.12493896484375
0.3041534583317116,-34.86382293701172,13.483291625976562,-25.9378662109375
0.3240504583227448,-35.12025451660156,13.424667358398438,-25.6275634765625
0.34394645832071546,-35.47655487060547,13.493545532226562,-24.94537353515625
0.3638434583263006,-36.002052307128906,13.488037109375,-23.9466552734375
0.38374045833188575,-36.84703826904297,13.584457397460938,-22.58026123046875
0.40363691665697843,-37.73291778564453,13.853652954101562,-20.9798583984375
0.42353391666256357,-38.38780975341797,14.005569458007812,-19.4954833984375
0.4434309166535968,-38.90110778808594,14.298568725585938,-18.3382568359375
0.46332691666611936,-39.29215621948242,14.4859619140625,-17.3201904296875
0.4832239166571526,-39.73276901245117,14.53521728515625,-16.2513427734375
0.5031209166627377,-40.21406173706055,14.494033813476562,-14.9139404296875
0.523017916653771,-40.461238861083984,14.743545532226562,-13.944580078125
0.5429139166662935,-40.36886215209961,14.9501953125,-13.9271240234375
0.5628109166573267,-40.18208312988281,15.391891479492188,-13.8572998046875
0.5827079166629119,-40.071556091308594,15.647491455078125,-14.003662109375
0.6026039166608825,-39.840965270996094,15.8331298828125,-14.22869873046875
0.6225009166664677,-39.58744812011719,15.925048828125,-14.60992431640625
0.6423979166575009,-39.399253845214844,16.094924926757812,-14.9083251953125
0.6622939166554715,-39.32327651977539,16.352310180664062,-15.03570556640625
0.6821909166610567,-39.21561813354492,16.437332153320312,-15.085205078125
0.7020879166666418,-39.05385208129883,16.727447509765625,-15.21484375
0.7219839166646125,-39.00346755981445,16.995880126953125,-15.33135986328125
0.7418809166556457,-38.79542541503906,17.331100463867188,-15.2188720703125
0.7617779166612308,-38.745445251464844,17.542388916015625,-15.20892333984375
0.7816739166592015,-38.648277282714844,17.776657104492188,-15.3043212890625
0.8015709166647866,-38.45721435546875,17.919769287109375,-15.4766845703125
0.8214679166558199,-38.30792999267578,17.93701171875,-15.76373291015625
0.8413639166537905,-38.263343811035156,17.882186889648438,-15.9940185546875
0.8612609166593757,-38.21643829345703,17.984207153320312,-16.009033203125
0.8811579166649608,-38.05830383300781,18.100204467773438,-15.94317626953125
0.9010539166629314,-38.09642791748047,18.2003173828125,-15.69342041015625
0.9209509166539647,-38.044708251953125,18.2701416015625,-15.713134765625
0.9408479166595498,-37.94317626953125,18.202285766601562,-15.87689208984375
0.960744916665135,-37.88081359863281,18.1588134765625,-16.227294921875
0.9806409166631056,-37.86988067626953,18.102523803710938,-16.28228759765625
1.0005379166541388,-37.787620544433594,18.081069946289062,-16.46221923828125
1.020434916659724,-37.728843688964844,17.946533203125,-16.65765380859375
1.0403309166576946,-37.60516357421875,17.824996948242188,-16.92681884765625
1.0602279166632798,-37.580810546875,17.737960815429688,-17.03094482421875
1.080124916654313,-37.47968673706055,17.815811157226562,-17.10321044921875
1.1000209166668355,-37.505367279052734,17.909271240234375,-17.1883544921875
1.1199179166578688,-37.49332046508789,17.95977783203125,-17.1458740234375
1.139814916663454,-37.44960403442383,18.022994995117188,-16.99462890625
1.1597109166614246,-37.51576614379883,18.082855224609375,-16.83135986328125
1.1796079166670097,-37.40529251098633,18.11126708984375,-16.818359375
1.199504916658043,-37.33002853393555,18.221282958984375,-16.84234619140625
1.2194009166560136,-37.36179733276367,18.19476318359375,-16.843505859375
1.2392979166615987,-37.38651657104492,18.194869995117188,-16.71185302734375
1.2591949166671839,-37.44706344604492,18.258514404296875,-16.59197998046875
1.2790909166651545,-37.43472671508789,18.335800170898438,-16.40765380859375
1.2989879166561877,-37.52470016479492,18.414382934570312,-16.3897705078125
1.3188849166617729,-37.48088455200195,18.356307983398438,-16.458984375
1.3387809166597435,-37.430049896240234,18.44024658203125,-16.4432373046875
1.3586779166653287,-37.267032623291016,18.523513793945312,-16.41607666015625
1.378574916656362,-37.22653579711914,18.6424560546875,-16.40643310546875
1.3984713333338732,-37.21992111206055,18.772811889648438,-16.2020263671875
1.4183683333249064,-37.283851623535156,18.915374755859375,-15.87994384765625
1.4382653333304916,-37.408660888671875,18.93768310546875,-15.65093994140625
1.4581613333284622,-37.396034240722656,18.984619140625,-15.47283935546875
1.4780583333340473,-37.34629440307617,19.121994018554688,-15.39483642578125
1.4979553333250806,-37.38272476196289,19.188583374023438,-15.3145751953125
1.5178513333230512,-37.4035758972168,19.1446533203125,-15.30877685546875
1.5377483333286364,-37.29568862915039,19.182769775390625,-15.194091796875
1.5576453333342215,-37.32948684692383,19.1494140625,-15.14617919921875
1.5775413333321922,-37.354270935058594,19.223495483398438,-15.0689697265625
1.5974383333232254,-37.358177185058594,19.392379760742188,-15.06719970703125
1.6173353333288105,-37.406349182128906,19.40289306640625,-15.06292724609375
1.6372313333267812,-37.490264892578125,19.337875366210938,-14.92047119140625
1.6571283333323663,-37.55524444580078,19.2882080078125,-14.7467041015625
1.6770253333233995,-37.68810272216797,19.187957763671875,-14.5555419921875
1.6969213333213702,-37.678321838378906,19.139236450195312,-14.52239990234375
1.7168183333269553,-37.76001739501953,19.079269409179688,-14.49835205078125
1.7367153333325405,-37.86341094970703,19.05023193359375,-14.40069580078125
1.7566113333305111,-37.97254180908203,18.955734252929688,-14.27923583984375
1.7765083333215443,-38.10858154296875,18.952835083007812,-14.13531494140625
1.7964053333271295,-38.16343688964844,18.953018188476562,-14.096435546875
1.8163013333251001,-38.192535400390625,18.950851440429688,-14.07073974609375
1.8361983333306853,-38.24641418457031,19.080734252929688,-14.00408935546875
1.8560953333217185,-38.267578125,19.168060302734375,-13.89459228515625
1.875991333334241,-38.18124771118164,19.155624389648438,-13.74114990234375
1.8958883333252743,-38.14711380004883,19.216766357421875,-13.60772705078125
1.9157853333308594,-38.15665817260742,19.314239501953125,-13.5645751953125
1.93568133332883,-38.20206832885742,19.282882690429688,-13.4893798828125
1.9555783333344152,-38.327152252197266,19.33734130859375,-13.44146728515625
1.9754753333254484,-38.244178771972656,19.371139526367188,-13.45123291015625
1.995371333323419,-38.293243408203125,19.364288330078125,-13.37200927734375
2.0152683333290042,-38.460289001464844,19.20086669921875,-13.28594970703125
2.0351653333345894,-38.53791809082031,19.063018798828125,-13.23382568359375
2.05506133333256,-38.55162048339844,18.952743530273438,-13.1668701171875
2.0749583333235933,-38.61445617675781,18.72735595703125,-13.03619384765625
2.0948553333291784,-38.654563903808594,18.725753784179688,-13.048828125
2.114751333327149,-38.80760192871094,18.636795043945312,-13.117431640625
2.134648333332734,-38.98284149169922,18.483749389648438,-13.17864990234375
2.1545453333237674,-38.92829895019531,18.411102294921875,-13.20391845703125
2.174441333321738,-39.07743835449219,18.187423706054688,-13.2513427734375
2.194338333327323,-39.16461181640625,18.092803955078125,-13.37335205078125
2.2142353333329083,-39.06622314453125,17.93646240234375,-13.4873046875
2.234131333330879,-39.005531311035156,17.833984375,-13.62225341796875
2.254028333321912,-39.03395080566406,17.816802978515625,-13.6925048828125
2.2739253333274974,-38.99897003173828,17.686721801757812,-13.8175048828125
2.293821333325468,-39.04474639892578,17.551956176757812,-13.802490234375
2.313718333331053,-39.03968811035156,17.5528564453125,-13.7513427734375
2.3336153333220864,-39.05015563964844,17.72796630859375,-13.845703125
2.353511333334609,-38.98662567138672,17.773757934570312,-13.89825439453125
2.373408333325642,-39.005958557128906,17.84228515625,-13.82586669921875
2.3933053333312273,-38.99639129638672,17.889205932617188,-13.82049560546875
2.413201333329198,-38.92671203613281,17.932846069335938,-13.84527587890625
2.433098333320231,-38.842132568359375,17.93896484375,-13.95123291015625
2.4529953333258163,-38.75630187988281,17.935165405273438,-13.89215087890625
2.472891333323787,-38.800132751464844,17.959747314453125,-13.96978759765625
2.492788333329372,-38.88837432861328,18.0322265625,-13.95135498046875
2.5126853333204053,-38.85340118408203,17.997100830078125,-13.9573974609375
2.532581333332928,-38.90321350097656,17.977142333984375,-13.96148681640625
2.552478333323961,-38.82423400878906,18.080841064453125,-13.9246826171875
2.5723753333295463,-38.731781005859375,18.067459106445312,-13.97564697265625
2.592271333327517,-38.73352813720703,18.082870483398438,-13.9632568359375
2.612168333333102,-38.73352813720703,18.084884643554688,-13.961181640625
2.6320653333241353,-38.80427551269531,18.062515258789062,-13.9736328125
2.651961333322106,-38.69801330566406,18.04949951171875,-13.99371337890625
2.671858333327691,-38.72319793701172,18.062545776367188,-13.88726806640625
2.691755333333276,-38.733360290527344,18.110580444335938,-13.7972412109375
2.711651333331247,-38.658470153808594,18.264389038085938,-13.86175537109375
2.73154833332228,-38.711936950683594,18.321807861328125,-13.928466796875
2.7514453333278652,-38.67720031738281,18.218734741210938,-13.960693359375
2.771341333325836,-38.70246124267578,18.168609619140625,-13.81134033203125
2.791238333331421,-38.723655700683594,18.098892211914062,-13.8583984375
2.8111353333224542,-38.8170166015625,18.23223876953125,-13.8272705078125
2.831031333320425,-38.72087097167969,18.28704833984375,-13.713134765625
2.85092833332601,-38.73912048339844,18.42034912109375,-13.5093994140625
2.870825333331595,-38.798397064208984,18.509078979492188,-13.33038330078125
2.890721333329566,-38.83012008666992,18.681732177734375,-13.2489013671875
2.910618333320599,-38.879032135009766,18.675827026367188,-13.200927734375
2.930515333326184,-38.83799362182617,18.660186767578125,-13.10357666015625
2.950411333324155,-38.91354751586914,18.556076049804688,-13.02679443359375
2.97030833332974,-38.983829498291016,18.601455688476562,-13.01348876953125
2.990205333320773,-38.99814224243164,18.615966796875,-13.07281494140625
3.0101013333332958,-38.976680755615234,18.667007446289062,-13.0020751953125
3.029998333324329,-39.06619644165039,18.618560791015625,-12.84490966796875
3.049895333329914,-38.99602127075195,18.548660278320312,-12.70538330078125
3.069791333327885,-39.039913177490234,18.512542724609375,-12.5849609375
3.08968833333347,-39.07431411743164,18.401214599609375,-12.584228515625
3.109585333324503,-39.06541061401367,18.411834716796875,-12.516845703125
3.129481333322474,-39.07125473022461,18.413101196289062,-12.5816650390625
3.149378333328059,-38.98544692993164,18.384170532226562,-12.67755126953125
3.1692743333260296,-38.91889572143555,18.427291870117188,-12.83111572265625
3.1891713333316147,-38.91984176635742,18.477508544921875,-12.8861083984375
3.209068333322648,-38.806949615478516,18.618682861328125,-12.86712646484375
3.2289643333206186,-38.823421478271484,18.513595581054688,-12.7626953125
3.2488613333262037,-38.8570442199707,18.519744873046875,-12.7037353515625
3.268758333331789,-38.8697624206543,18.574783325195312,-12.7110595703125
3.2886543333297595,-38.91093826293945,18.552963256835938,-12.80615234375
3.3085513333207928,-39.00046920776367,18.57513427734375,-12.84307861328125
3.328448333326378,-38.980464935302734,18.430419921875,-12.93353271484375
3.3483443333243486,-39.011356353759766,18.4443359375,-12.85833740234375
3.3682413333299337,-39.03408432006836,18.476531982421875,-12.78472900390625
3.388138333320967,-39.06899642944336,18.537918090820312,-12.75946044921875
3.4080343333334895,-39.09305191040039,18.564788818359375,-12.6942138671875
3.4279313333245227,-39.08450698852539,18.480331420898438,-12.62908935546875
3.447828333330108,-39.09872055053711,18.457748413085938,-12.59686279296875
3.4677243333280785,-39.090572357177734,18.552352905273438,-12.5572509765625
3.4876213333336636,-39.071781158447266,18.48150634765625,-12.58721923828125
3.507518333324697,-39.05475997924805,18.510772705078125,-12.56146240234375
3.5274143333226675,-39.05186080932617,18.518310546875,-12.4869384765625
3.5473113333282527,-39.05240249633789,18.430419921875,-12.5491943359375
3.567208333333838,-39.088375091552734,18.378631591796875,-12.54974365234375
3.5871043333318084,-39.08933639526367,18.358474731445312,-12.49639892578125
3.6070013333228417,-39.09846878051758,18.304855346679688,-12.4818115234375
3.626898333328427,-39.076534271240234,18.305450439453125,-12.5709228515625
3.6467943333263975,-39.00320816040039,18.307785034179688,-12.49578857421875
3.6666913333319826,-39.0246696472168,18.357528686523438,-12.45220947265625
3.686588333323016,-39.05976867675781,18.352615356445312,-12.4698486328125
3.7064843333209865,-39.106910705566406,18.40838623046875,-12.40777587890625
3.7263813333265716,-39.157623291015625,18.334320068359375,-12.36724853515625
3.7462773333245423,-39.060646057128906,18.449569702148438,-12.3502197265625
3.7661743333301274,-39.14732360839844,18.46514892578125,-12.23944091796875
3.7860713333211606,-39.17070770263672,18.592910766601562,-12.18267822265625
3.805967333333683,-39.21991729736328,18.581008911132812,-12.152587890625
3.8258643333247164,-39.24534606933594,18.597854614257812,-12.1551513671875
3.8457613333303016,-39.16246032714844,18.541458129882812,-12.22515869140625
3.865657333328272,-39.137367248535156,18.5670166015625,-12.10418701171875
3.8855543333338574,-39.20692443847656,18.63226318359375,-11.97589111328125
3.9054513333248906,-39.17039489746094,18.609695434570312,-12.00030517578125
3.9253473333228612,-39.24315643310547,18.704620361328125,-11.97052001953125
3.9452443333284464,-39.325157165527344,18.681442260742188,-11.96417236328125
3.9651413333340315,-39.33763122558594,18.757049560546875,-12.0477294921875
3.985037333332002,-39.27812194824219,18.753036499023438,-12.05224609375
4.004934333323035,-39.334632873535156,18.673187255859375,-12.045654296875
4.0248313333286205,-39.384765625,18.744659423828125,-12.0296630859375
4.044727333326591,-39.357688903808594,18.628662109375,-12.04168701171875
4.064624333332176,-39.316123962402344,18.60693359375,-12.0341796875
4.0845213333232095,-39.26777648925781,18.666778564453125,-12.084716796875
4.10441733332118,-39.25244140625,18.61895751953125,-12.1363525390625
4.124314333326765,-39.21299743652344,18.693939208984375,-12.07989501953125
4.1442113333323505,-39.194679260253906,18.658615112304688,-12.05987548828125
4.164107333330321,-39.323585510253906,18.565750122070312,-12.05255126953125
4.184004333321354,-39.22425079345703,18.586669921875,-12.17547607421875
4.203900333333877,-39.216468811035156,18.500808715820312,-12.2076416015625
4.22379733332491,-39.21955108642578,18.599685668945312,-12.17242431640625
4.243694333330495,-39.24805450439453,18.595169067382812,-12.0711669921875
4.263590333328466,-39.246742248535156,18.6246337890625,-12.13409423828125
4.283487333334051,-39.156654357910156,18.594894409179688,-12.1370849609375
4.303384333325084,-39.18120574951172,18.698287963867188,-12.0662841796875
4.323280333323055,-39.148643493652344,18.627777099609375,-12.1123046875
4.34317733332864,-39.15419006347656,18.591278076171875,-12.06121826171875
4.363074333334225,-39.08753967285156,18.66766357421875,-12.119873046875
4.382970333332196,-39.086997985839844,18.599334716796875,-12.2200927734375
4.402867416662048,-39.14604949951172,18.5491943359375,-12.27435302734375
4.422764416667633,-39.13623046875,18.544189453125,-12.314453125
4.442660416665603,-39.14283752441406,18.558502197265625,-12.27392578125
4.462557416656637,-39.15223693847656,18.633163452148438,-12.29180908203125
4.482454416662222,-39.07525634765625,18.612167358398438,-12.328857421875
4.502350416660192,-38.99687194824219,18.59271240234375,-12.2579345703125
4.522247416665778,-39.00324249267578,18.61865234375,-12.214599609375
4.542144416656811,-39.070098876953125,18.573135375976562,-12.1474609375
4.562040416654781,-39.20252227783203,18.608078002929688,-12.1578369140625
4.581937416660367,-39.13444519042969,18.629104614257812,-12.143798828125
4.601834416665952,-39.21165466308594,18.671646118164062,-12.1180419921875
4.621730416663922,-39.24858093261719,18.616470336914062,-12.1497802734375
4.641627416654956,-39.294456481933594,18.543533325195312,-12.09100341796875
4.661523416667478,-39.25196075439453,18.489151000976562,-12.1925048828125
4.681420416658511,-39.258331298828125,18.495361328125,-12.2862548828125
4.7013174166640965,-39.270057678222656,18.519546508789062,-12.32373046875
4.721213416662067,-39.23297882080078,18.543365478515625,-12.3466796875
4.741110416667652,-39.24102020263672,18.493087768554688,-12.39361572265625
4.7610074166586855,-39.234703063964844,18.443756103515625,-12.318603515625
4.780903416656656,-39.25767517089844,18.527099609375,-12.32806396484375
4.800800416662241,-39.231048583984375,18.557174682617188,-12.3338623046875
4.8206974166678265,-39.184303283691406,18.575180053710938,-12.3704833984375
4.840593416665797,-39.134056091308594,18.51397705078125,-12.46820068359375
4.86049041665683,-39.139007568359375,18.527694702148438,-12.41900634765625
4.8803874166624155,-39.067626953125,18.591339111328125,-12.23480224609375
4.900283416660386,-39.12351989746094,18.5406494140625,-12.25286865234375
4.920180416665971,-39.14026641845703,18.440963745117188,-12.3292236328125
4.940076416663942,-39.237266540527344,18.418472290039062,-12.27825927734375
4.959973416654975,-39.25200653076172,18.438858032226562,-12.1912841796875
4.97987041666056,-39.239219665527344,18.540298461914062,-12.0655517578125
4.999766416658531,-39.25187683105469,18.520584106445312,-11.989990234375
5.019663416664116,-39.29908752441406,18.5364990234375,-11.9691162109375
5.039560416655149,-39.23717498779297,18.495025634765625,-11.900146484375
5.059456416667672,-39.23094177246094,18.471343994140625,-11.885498046875
5.079353416658705,-39.21796417236328,18.5360107421875,-11.8336181640625
5.09925041666429,-39.153236389160156,18.572021484375,-11.82403564453125
5.119146416662261,-39.146942138671875,18.557861328125,-11.86700439453125
5.139043416667846,-39.16480255126953,18.626007080078125,-11.866455078125
5.158940416658879,-39.140235900878906,18.742141723632812,-11.8726806640625
5.17883641665685,-39.15203857421875,18.935440063476562,-11.93280029296875
5.198733416662435,-38.966064453125,18.812881469726562,-11.9613037109375
5.218630416653468,-38.79841613769531,18.926742553710938,-12.10272216796875
5.238526416665991,-38.8082275390625,18.9453125,-12.09832763671875
5.258423416657024,-38.89313507080078,18.934906005859375,-12.03326416015625
