Time (s),X (µT),Y (µT),Z (µT)
0.0022950833226786926,15.847225189208984,34.66282653808594,-26.32000732421875
0.022192083328263834,15.896678924560547,34.59635925292969,-26.34686279296875
0.04208808332623448,15.816360473632812,34.62226867675781,-26.4764404296875
0.061985083331819624,15.510408401489258,34.58445739746094,-26.6083984375
0.08188108332979027,15.22144889831543,34.600189208984375,-26.73760986328125
0.10177808333537541,14.96969985961914,34.65888977050781,-26.753662109375
0.12167408333334606,14.694780349731445,34.81919860839844,-26.8858642578125
0.1415710833243793,14.362979888916016,34.8067626953125,-27.0509033203125
0.16146708333690185,13.989664077758789,34.95289611816406,-27.11529541015625
0.18136408332793508,13.580440521240234,34.95936584472656,-27.27447509765625
0.20126008332590573,13.161916732788086,34.91111755371094,-27.3785400390625
0.22115708333149087,13.05718994140625,34.986419677734375,-27.50946044921875
0.24105308332946151,12.912534713745117,34.93202209472656,-27.63140869140625
0.26095008333504666,12.893501281738281,34.88470458984375,-27.6217041015625
0.2808460833330173,12.896514892578125,34.796722412109375,-27.60595703125
0.30074308332405053,13.028985977172852,34.81610107421875,-27.50238037109375
0.3206390833365731,12.99500846862793,34.84075927734375,-27.4989013671875
0.3405360833276063,13.175252914428711,34.99053955078125,-27.3060302734375
0.36043208332557697,13.247016906738281,35.15367126464844,-27.20928955078125
0.3803290833311621,13.379863739013672,35.366790771484375,-26.96246337890625
0.40022508332913276,13.504291534423828,35.69291687011719,-26.0638427734375
0.4201220833347179,14.156692504882812,36.295867919921875,-24.86077880859375
0.44001808333268855,15.292718887329102,37.22453308105469,-22.40484619140625
0.4599150833237218,17.15121078491211,38.19248962402344,-19.38409423828125
0.47981108333624434,19.268268585205078,38.81965637207031,-16.3070068359375
0.49970808332727756,21.347000122070312,38.941192626953125,-13.9041748046875
0.5196050833328627,23.182687759399414,38.55335998535156,-12.381591796875
0.5395010833308334,24.487621307373047,38.20707702636719,-11.36785888671875
0.5593980833364185,25.6173095703125,37.71253967285156,-11.041015625
0.5792940833343891,26.144695281982422,37.39678955078125,-11.19000244140625
0.5991910833254224,26.023176193237305,36.96766662597656,-12.33154296875
0.619087083323393,25.59496307373047,36.47496032714844,-13.9910888671875
0.6389840833289782,24.871665954589844,36.40362548828125,-15.31884765625
0.6588800833269488,24.146324157714844,36.38801574707031,-16.5645751953125
0.678777083332534,23.672521591186523,36.2313232421875,-17.5958251953125
0.6986730833305046,23.123172760009766,36.12492370605469,-18.4150390625
0.7185700833360897,22.17258644104004,36.18385314941406,-19.17999267578125
0.7384660833340604,20.619464874267578,36.714385986328125,-19.72418212890625
0.7583630833250936,19.33953857421875,37.4130859375,-19.768310546875
0.7782590833230643,18.41534423828125,37.78593444824219,-19.95794677734375
0.7981560833286494,17.0242977142334,37.96720886230469,-20.66522216796875
0.81805208332662,15.784708023071289,38.25196838378906,-20.93389892578125
0.8379490833322052,15.35087776184082,38.44578552246094,-21.01318359375
0.8578450833301758,15.438783645629883,38.660491943359375,-20.34234619140625
0.877742083335761,16.199264526367188,38.40425109863281,-20.2724609375
0.8976380833337316,16.997982025146484,37.85015869140625,-20.83599853515625
0.9175350833247649,16.818153381347656,37.949676513671875,-20.919677734375
0.9374310833227355,15.03443717956543,38.82981872558594,-19.6015625
0.9573280833283206,11.821605682373047,40.383636474609375,-18.724609375
0.9772240833262913,8.45042610168457,41.40293884277344,-18.6689453125
0.9971210833318764,5.602703094482422,41.81089782714844,-19.01593017578125
1.017017083329847,2.943998336791992,41.96717834472656,-19.27532958984375
1.0369140833354322,-0.15444183349609375,41.78643798828125,-19.8182373046875
1.0568100833334029,-3.2708091735839844,41.65959167480469,-20.0054931640625
1.076707083324436,-5.339454650878906,41.59880065917969,-19.65582275390625
1.0966030833369587,-6.395599365234375,41.83088684082031,-19.23907470703125
1.1165000833279919,-6.965972900390625,42.13270568847656,-18.33575439453125
1.1363960833259625,-7.342254638671875,42.69903564453125,-16.735107421875
1.1562930833315477,-7.829990386962891,43.50038146972656,-14.62005615234375
1.1761890833295183,-7.796058654785156,44.33900451660156,-12.3297119140625
1.1960860833351035,-6.523777008056641,44.94123840332031,-10.7955322265625
1.2159820833330741,-4.836265563964844,45.05268859863281,-10.78924560546875
1.2358790833241073,-3.8924293518066406,45.04646301269531,-10.9898681640625
1.25577508333663,-3.3698959350585938,45.079345703125,-11.198486328125
1.2756720833276631,-3.2866744995117188,45.23536682128906,-11.10015869140625
1.2955680833256338,-3.2609214782714844,45.130859375,-10.92523193359375
1.3154644583264599,-3.5248336791992188,44.776580810546875,-11.57342529296875
1.3353604583244305,-4.8031768798828125,44.371856689453125,-11.63916015625
1.3552574583300157,-8.380176544189453,44.15516662597656,-10.03369140625
1.3751534583279863,-12.285301208496094,43.94024658203125,-7.839599609375
1.3950504583335714,-14.588958740234375,43.76103210449219,-6.100830078125
1.414946458331542,-15.289562225341797,43.661651611328125,-4.835205078125
1.4348434583371272,-15.061325073242188,43.60908508300781,-4.2376708984375
1.4547394583350979,-14.74099349975586,43.096649169921875,-4.80670166015625
1.474636458326131,-15.504863739013672,42.487274169921875,-4.7076416015625
1.4945324583241018,-17.08395767211914,42.58525085449219,-2.822265625
1.514429458329687,-18.639968872070312,42.67601013183594,-1.27288818359375
1.5343254583276575,-19.55597686767578,42.59124755859375,-0.052978515625
1.5542224583332427,-19.89602279663086,42.3770751953125,-0.02044677734375
1.5741184583312133,-19.25061798095703,42.243621826171875,-0.563232421875
1.5940154583367985,-18.60186004638672,42.3037109375,-1.6883544921875
1.6139114583347691,-17.670398712158203,42.44541931152344,-3.10504150390625
1.6338084583258023,-16.409530639648438,42.69236755371094,-4.7464599609375
1.653704458323773,-15.410263061523438,42.63676452636719,-6.19866943359375
1.6736014583293581,-14.827018737792969,42.70207214355469,-6.96881103515625
1.6934974583273288,-14.554725646972656,42.56996154785156,-7.85125732421875
1.713394458332914,-14.215213775634766,42.407623291015625,-9.11163330078125
1.7332904583308846,-13.82448959350586,42.31562805175781,-10.26092529296875
1.7531864583288552,-13.557579040527344,42.23681640625,-10.98211669921875
1.7730834583344404,-13.31866455078125,42.181365966796875,-11.0147705078125
1.792979458332411,-13.309356689453125,42.234466552734375,-10.86871337890625
1.8128764583234442,-13.304309844970703,42.35801696777344,-10.72137451171875
1.8327724583359668,-13.530475616455078,42.43290710449219,-10.30682373046875
1.852669458327,-13.633861541748047,42.47752380371094,-10.18621826171875
1.8725654583249707,-13.700138092041016,42.55619812011719,-10.00579833984375
1.8924624583305558,-13.711463928222656,42.60789489746094,-9.71893310546875
1.9123584583285265,-13.729576110839844,42.61814880371094,-9.69842529296875
1.9322554583341116,-13.642967224121094,42.60743713378906,-9.77886962890625
1.9521514583320823,-13.694076538085938,42.56756591796875,-9.853271484375
1.9720484583231155,-13.628498077392578,42.52760314941406,-10.01220703125
1.991944458335638,-13.635555267333984,42.45719909667969,-10.15985107421875
2.0118414583266713,-13.644268035888672,42.459320068359375,-10.28814697265625
2.031737458324642,-13.57818603515625,42.41734313964844,-10.36041259765625
2.051634458330227,-13.5240478515625,42.4603271484375,-10.3665771484375
2.0715304583281977,-13.606132507324219,42.50245666503906,-10.3699951171875
2.091427458333783,-13.621639251708984,42.45574951171875,-10.24334716796875
2.1113234583317535,-13.729820251464844,42.48143005371094,-10.2333984375
2.1312204583227867,-13.78787612915039,42.536956787109375,-10.05218505859375
2.1511164583353093,-13.775985717773438,42.55531311035156,-9.898193359375
2.1710134583263425,-13.801017761230469,42.57994079589844,-9.879150390625
2.190909458324313,-13.693412780761719,42.60282897949219,-9.86627197265625
2.2108064583298983,-13.670631408691406,42.564788818359375,-9.806396484375
2.230702458327869,-13.578739166259766,42.61726379394531,-9.79254150390625
2.250599458333454,-13.649757385253906,42.614837646484375,-9.8751220703125
2.2704954583314247,-13.579170227050781,42.70491027832031,-9.8687744140625
2.29039245833701,-13.430721282958984,42.6981201171875,-9.9151611328125
2.310288708336884,-13.428550720214844,42.62831115722656,-10.02642822265625
2.3301857083279174,-13.404193878173828,42.60450744628906,-10.1312255859375
2.350081708325888,-13.275901794433594,42.59513854980469,-10.28070068359375
2.369978708331473,-13.175422668457031,42.5843505859375,-10.43743896484375
2.389874708329444,-13.155502319335938,42.65386962890625,-10.52325439453125
2.4097707083274145,-12.920364379882812,42.55882263183594,-10.82293701171875
2.4296677083329996,-12.90606689453125,42.66197204589844,-10.86773681640625
2.4495637083309703,-12.822067260742188,42.498748779296875,-10.87542724609375
2.4694607083365554,-12.74447250366211,42.462158203125,-10.86907958984375
2.489356708334526,-12.58456802368164,42.55705261230469,-10.896240234375
2.5092537083255593,-12.611541748046875,42.58366394042969,-10.7955322265625
2.52914970832353,-12.677173614501953,42.547943115234375,-10.667236328125
2.549046708329115,-12.796619415283203,42.54290771484375,-10.61077880859375
2.5689427083270857,-12.874919891357422,42.57914733886719,-10.52154541015625
2.588839708332671,-12.904426574707031,42.704437255859375,-10.4200439453125
2.6087357083306415,-12.906944274902344,42.78868103027344,-10.240234375
2.6286327083362266,-12.88315200805664,42.81556701660156,-10.06201171875
2.6485287083341973,-13.078014373779297,42.88029479980469,-9.88494873046875
2.6684257083252305,-13.257091522216797,42.89405822753906,-9.7421875
2.688321708323201,-13.272136688232422,42.88047790527344,-9.72119140625
2.7082187083287863,-13.235755920410156,42.95875549316406,-9.60443115234375
2.728114708326757,-13.211261749267578,43.007110595703125,-9.62945556640625
2.748011708332342,-13.214855194091797,42.95269775390625,-9.5924072265625
2.7679077083303127,-13.187843322753906,42.95263671875,-9.6754150390625
2.787804708335898,-13.182201385498047,42.983551025390625,-9.5899658203125
2.8077007083338685,-13.190807342529297,43.028717041015625,-9.60882568359375
2.827596708331839,-13.185585021972656,43.03533935546875,-9.5845947265625
2.8474937083228724,-13.21536636352539,43.02079772949219,-9.50067138671875
2.867389708335395,-13.200077056884766,43.04890441894531,-9.56591796875
2.887286708326428,-13.183944702148438,42.951324462890625,-9.5771484375
2.907182708324399,-13.102046966552734,42.93717956542969,-9.52685546875
2.927079708329984,-13.021957397460938,42.986297607421875,-9.498291015625
2.9469757083279546,-13.161617279052734,42.995880126953125,-9.57623291015625
2.9668727083335398,-13.09457015991211,43.00236511230469,-9.59918212890625
2.9867687083315104,-13.051803588867188,42.99955749511719,-9.6654052734375
3.0066657083370956,-12.998893737792969,42.9722900390625,-9.7615966796875
3.026561708335066,-13.000740051269531,42.96232604980469,-9.821533203125
3.0464587083260994,-12.896259307861328,42.991180419921875,-9.84747314453125
3.06635470832407,-12.894386291503906,42.988372802734375,-9.79412841796875
3.0862517083296552,-13.050369262695312,42.9447021484375,-9.72247314453125
3.106147708327626,-13.202621459960938,42.915069580078125,-9.737548828125
3.1260437083255965,-13.16861343383789,42.947906494140625,-9.71441650390625
3.1459407083311817,-13.20901870727539,42.96583557128906,-9.69146728515625
3.1658367083291523,-13.274234771728516,42.90052795410156,-9.658447265625
3.1857337083347375,-13.352008819580078,42.90995788574219,-9.482177734375
3.205629708332708,-13.319404602050781,42.939971923828125,-9.3648681640625
3.2255267083237413,-13.280265808105469,42.976165771484375,-9.28472900390625
3.245422708336264,-13.258190155029297,43.02210998535156,-9.2064208984375
3.265319708327297,-13.259990692138672,43.00030517578125,-9.18603515625
3.2852157083252678,-13.276798248291016,42.97929382324219,-9.20867919921875
3.3051129583327565,-13.261333465576172,43.0103759765625,-9.2529296875
3.325008958330727,-13.27780532836914,43.05535888671875,-9.31884765625
3.3449059583363123,-13.338882446289062,43.07868957519531,-9.33599853515625
3.364801958334283,-13.288196563720703,43.0675048828125,-9.366455078125
3.384698958325316,-13.258445739746094,43.018707275390625,-9.1976318359375
3.404594958323287,-13.346054077148438,43.04710388183594,-9.194580078125
3.4244909583358094,-13.329837799072266,43.00605773925781,-9.128173828125
3.4443879583268426,-13.384395599365234,42.9351806640625,-9.0511474609375
3.4642839583248133,-13.376914978027344,42.957427978515625,-9.09625244140625
3.4841809583303984,-13.368560791015625,42.987091064453125,-9.07086181640625
3.504076958328369,-13.447601318359375,43.03688049316406,-9.0062255859375
3.523973958333954,-13.466094970703125,43.00770568847656,-9.001953125
3.543869958331925,-13.50396728515625,42.93922424316406,-8.95928955078125
3.563766958322958,-13.514053344726562,43.05006408691406,-8.854736328125
3.5836629583354807,-13.503704071044922,43.122467041015625,-8.7449951171875
3.603559958326514,-13.577617645263672,43.124847412109375,-8.60723876953125
3.6234559583244845,-13.667022705078125,43.17085266113281,-8.58575439453125
3.6433529583300697,-13.67660903930664,43.16722106933594,-8.62811279296875
3.6632489583280403,-13.837181091308594,43.052215576171875,-8.5386962890625
3.6831459583336255,-13.806072235107422,42.99647521972656,-8.5198974609375
3.703041958331596,-13.868045806884766,43.08061218261719,-8.441650390625
3.7229379583295668,-13.928386688232422,43.011016845703125,-8.42486572265625
3.742834958335152,-13.90182876586914,43.0577392578125,-8.41082763671875
3.7627309583331225,-14.038761138916016,43.03173828125,-8.43951416015625
3.7826279583241558,-14.131645202636719,43.10688781738281,-8.35516357421875
3.8025239583366783,-14.172222137451172,43.03257751464844,-8.37371826171875
3.8224209583277116,-14.280956268310547,42.98931884765625,-8.30731201171875
3.842316958325682,-14.337127685546875,42.93898010253906,-8.20166015625
3.8622139583312673,-14.455142974853516,42.90660095214844,-8.1632080078125
3.882109958329238,-14.466659545898438,42.91400146484375,-8.0863037109375
3.902006958334823,-14.52291488647461,42.95585632324219,-8.04681396484375
3.921902958332794,-14.498924255371094,43.037567138671875,-7.99713134765625
3.9417989583307644,-14.602176666259766,42.98643493652344,-7.94586181640625
3.9616959583363496,-14.618865966796875,42.946533203125,-7.8917236328125
3.9815919583343202,-14.693618774414062,42.88911437988281,-7.82110595703125
4.0014889583253535,-14.77126693725586,42.924072265625,-7.7711181640625
4.021384958323324,-14.86822509765625,42.957275390625,-7.772216796875
4.041281958328909,-14.808311462402344,42.95030212402344,-7.9212646484375
4.06117795832688,-14.73330307006836,42.86775207519531,-7.93212890625
4.081074958332465,-14.780494689941406,42.861968994140625,-7.92340087890625
4.100970958330436,-14.78464126586914,42.83177185058594,-7.97943115234375
4.120867958336021,-14.715324401855469,42.808929443359375,-8.00946044921875
4.1407639583339915,-14.741329193115234,42.80058288574219,-8.06298828125
4.160659958331962,-14.780021667480469,42.77557373046875,-8.08001708984375
4.180556958322995,-14.782806396484375,42.80430603027344,-8.0960693359375
4.200452958335518,-14.797637939453125,42.73384094238281,-8.19317626953125
4.220349958326551,-14.740192413330078,42.664093017578125,-8.20672607421875
4.240245958324522,-14.73654556274414,42.70811462402344,-8.33819580078125
4.260142958330107,-14.77475357055664,42.73089599609375,-8.38494873046875
4.280038958328078,-14.792312622070312,42.71574401855469,-8.43145751953125
4.299935958333663,-14.71364974975586,42.72065734863281,-8.5302734375
4.3198321249947185,-14.590274810791016,42.780853271484375,-8.57354736328125
4.339729125000304,-14.451942443847656,42.74873352050781,-8.64947509765625
4.359625124998274,-14.393192291259766,42.71162414550781,-8.68829345703125
4.379521124996245,-14.398551940917969,42.7520751953125,-8.74908447265625
4.39941812500183,-14.456012725830078,42.69236755371094,-8.7841796875
4.419314124999801,-14.311695098876953,42.68017578125,-8.8515625
4.439211124990834,-14.282829284667969,42.69673156738281,-8.87420654296875
4.4591071250033565,-14.159011840820312,42.72779846191406,-8.84124755859375
4.47900412499439,-13.963062286376953,42.74211120605469,-9.08612060546875
4.49890012499236,-13.99972152709961,42.729644775390625,-9.23907470703125
4.5187971249979455,-13.977607727050781,42.712677001953125,-9.3646240234375
4.538693124995916,-13.972816467285156,42.7589111328125,-9.36517333984375
4.558589124993887,-14.066715240478516,42.75559997558594,-9.3912353515625
4.578486124999472,-14.056468963623047,42.732696533203125,-9.28662109375
4.598382124997443,-13.965835571289062,42.64788818359375,-9.3775634765625
4.618279125003028,-13.978923797607422,42.74403381347656,-9.3568115234375
4.638175125000998,-13.855949401855469,42.68522644042969,-9.390380859375
4.658072124992032,-13.806221008300781,42.59580993652344,-9.49249267578125
4.677968124990002,-13.703502655029297,42.55584716796875,-9.61761474609375
4.697865124995587,-13.611629486083984,42.58599853515625,-9.70123291015625
4.717761124993558,-13.465740203857422,42.59136962890625,-9.74365234375
4.737658124999143,-13.374298095703125,42.56962585449219,-9.86895751953125
4.757554124997114,-13.3759765625,42.59263610839844,-9.98907470703125
4.7774501249950845,-13.411663055419922,42.56452941894531,-9.989990234375
4.79734712500067,-13.388534545898438,42.60797119140625,-10.07159423828125
4.81724312499864,-13.265438079833984,42.61578369140625,-10.18359375
4.8371401249896735,-13.363388061523438,42.55682373046875,-10.24737548828125
4.857036125002196,-13.293994903564453,42.59759521484375,-10.31982421875
4.876933124993229,-13.127578735351562,42.64369201660156,-10.38446044921875
4.8968291249912,-13.076629638671875,42.61204528808594,-10.49188232421875
4.916726124996785,-13.146453857421875,42.51263427734375,-10.6126708984375
4.936622124994756,-13.101490020751953,42.526275634765625,-10.71502685546875
4.956518124992726,-13.118965148925781,42.513092041015625,-10.81988525390625
4.9764151249983115,-12.989852905273438,42.5751953125,-10.8907470703125
4.996311124996282,-12.989261627197266,42.58110046386719,-10.957763671875
5.016208125001867,-12.968986511230469,42.53916931152344,-10.96771240234375
5.036104124999838,-12.90682601928711,42.61993408203125,-10.9954833984375
5.056001124990871,-12.804546356201172,42.6488037109375,-10.9710693359375
5.075897125003394,-12.773441314697266,42.65235900878906,-11.02294921875
5.095794124994427,-12.729816436767578,42.598236083984375,-11.074462890625
5.115690124992398,-12.635990142822266,42.59193420410156,-11.11151123046875
5.135586124990368,-12.51779556274414,42.59486389160156,-11.1591796875
5.155483124995953,-12.62289810180664,42.52500915527344,-11.05889892578125
5.175379124993924,-12.51983642578125,42.58287048339844,-11.05303955078125
5.195276124999509,-12.610225677490234,42.4921875,-11.04547119140625
5.21517212499748,-12.612396240234375,42.5289306640625,-11.07080078125
5.235069125003065,-12.633476257324219,42.430938720703125,-11.0860595703125
5.254965125001036,-12.560482025146484,42.42308044433594,-11.12518310546875
5.274861124999006,-12.558536529541016,42.55876159667969,-11.20831298828125
5.2947581249900395,-12.540817260742188,42.64750671386719,-11.31451416015625
