"Time (s)","X (µT)","Y (µT)","Z (µT)"
0.027853291663632262,34.524593353271484,-14.734848022460938,-20.458236694335938
0.04790829166449839,34.05803298950195,-14.558792114257812,-21.13835906982422
0.06796229166502599,33.63288116455078,-14.473316192626953,-21.966957092285156
0.08801729166589212,32.94565200805664,-14.535520553588867,-22.83855438232422
0.10807229166675825,32.43004608154297,-14.617412567138672,-23.832366943359375
0.12812629166728584,31.49843978881836,-15.027854919433594,-25.037933349609375
0.14818129166815197,30.39410400390625,-15.082160949707031,-26.190750122070312
0.16823629166174214,29.4774227142334,-15.037303924560547,-27.278060913085938
0.18829029166226974,28.692142486572266,-14.690839767456055,-28.234031677246094
0.20834529166313587,27.789886474609375,-14.443733215332031,-29.043304443359375
0.228400291664002,27.221628189086914,-13.80500602722168,-30.1595458984375
0.2484542916645296,26.401588439941406,-13.218814849853516,-31.037002563476562
0.2685092916653957,25.939579010009766,-12.55118179321289,-31.59296417236328
0.28856429166626185,25.06314468383789,-11.49346923828125,-32.389739990234375
0.30861829166678945,24.07854461669922,-10.279367446899414,-33.41654968261719
0.3286732916676556,23.52765655517578,-9.400167465209961,-34.197845458984375
0.34872829166124575,22.962839126586914,-7.349210739135742,-35.026405334472656
0.36878229166177334,22.207775115966797,-5.2991485595703125,-35.657814025878906
0.3888372916626395,21.158327102661133,-3.3939437866210938,-36.365997314453125
0.40889129166316707,20.63273811340332,-1.450347900390625,-36.384742736816406
0.4289465833280701,20.441932678222656,-0.02915191650390625,-36.208045959472656
0.44900158332893625,20.460752487182617,0.3367500305175781,-36.38597106933594
0.46905558332946384,19.29551124572754,-0.5982837677001953,-36.96210479736328
0.48911058333033,16.90413475036621,-1.7786006927490234,-37.98468017578125
0.5091655833311961,15.076433181762695,-2.6411590576171875,-39.061012268066406
0.5292195833317237,10.56942081451416,-4.36207389831543,-40.33671569824219
0.5492745833325898,5.120345115661621,-7.668020248413086,-41.31028747558594
0.569329583333456,-1.3043928146362305,-10.787002563476562,-40.98133850097656
0.5893835833339836,-7.400612831115723,-13.63239860534668,-39.47406768798828
0.6094385833348497,-13.130905151367188,-16.054428100585938,-37.120025634765625
0.6294925833281013,-17.713218688964844,-18.437068939208984,-34.22515106201172
0.6495475833289674,-21.41436004638672,-20.593814849853516,-30.701416015625
0.6696025833298336,-23.59482192993164,-22.14603042602539,-27.350875854492188
0.6896565833303612,-25.433073043823242,-23.03009033203125,-25.31641387939453
0.7097115833312273,-26.293964385986328,-22.661270141601562,-24.989288330078125
0.7297655833317549,-26.238170623779297,-21.589431762695312,-25.797744750976562
0.749820583332621,-26.112871170043945,-20.937381744384766,-26.27874755859375
0.7698755833334872,-25.857481002807617,-19.59328269958496,-27.78516387939453
0.7899295833340148,-26.071346282958984,-17.97886848449707,-28.911277770996094
0.8099845833348809,-26.078510284423828,-16.576698303222656,-29.030120849609375
0.830039583328471,-26.554574966430664,-16.090435028076172,-29.152244567871094
0.8500935833289986,-27.236921310424805,-15.765953063964844,-28.40924835205078
0.8701485833298648,-28.20183563232422,-15.899698257446289,-27.218727111816406
0.8902025833303924,-29.146846771240234,-15.96316146850586,-26.125396728515625
0.9102575833312585,-30.434831619262695,-15.918291091918945,-24.474380493164062
0.9303125833321246,-31.96865463256836,-15.261445999145508,-22.57135009765625
0.9503665833326522,-33.32170867919922,-14.185314178466797,-21.04296112060547
0.9704215833335184,-33.434417724609375,-14.041696548461914,-21.425270080566406
0.990475583334046,-32.6611328125,-13.85626220703125,-22.702980041503906
1.010530583334912,-31.664262771606445,-14.09262466430664,-23.64349365234375
1.0305855833285023,-31.261295318603516,-14.968183517456055,-23.972694396972656
1.0506395833290298,-31.1651611328125,-16.538589477539062,-22.673171997070312
1.070694583329896,-31.051841735839844,-19.29166030883789,-21.164901733398438
1.0907485833304236,-30.935523986816406,-22.113819122314453,-18.213165283203125
1.1108035833312897,-30.47986602783203,-24.85515594482422,-15.797576904296875
1.1308585833321558,-29.91495132446289,-26.842405319213867,-13.522735595703125
1.1509125833326834,-28.678264617919922,-28.88011932373047,-11.994010925292969
1.1709675833335496,-27.840564727783203,-30.01510238647461,-11.483444213867188
1.1910215833340771,-26.354976654052734,-31.822898864746094,-10.584953308105469
1.2110765833349433,-25.038997650146484,-33.045230865478516,-10.174530029296875
1.2311315833285335,-24.189769744873047,-33.60171890258789,-10.224601745605469
1.251185583329061,-23.79885482788086,-33.6141242980957,-11.298118591308594
1.2712405833299272,-23.554244995117188,-32.9763069152832,-13.751541137695312
1.2912945833304548,-23.379201889038086,-31.831764221191406,-15.950637817382812
1.311349583331321,-23.448062896728516,-30.732629776000977,-17.50586700439453
1.331404583332187,-23.680091857910156,-29.958309173583984,-18.483375549316406
1.3514585833327146,-23.625072479248047,-29.70637321472168,-18.82038116455078
1.3715135833335808,-23.48971176147461,-29.981779098510742,-18.61927032470703
1.3915675833341083,-24.000762939453125,-30.19961929321289,-17.281875610351562
1.4116225833349745,-25.630661010742188,-29.780521392822266,-15.698410034179688
1.431677041662624,-28.20193099975586,-28.35671043395996,-13.18353271484375
1.4517310416631517,-30.810592651367188,-26.41570472717285,-11.097373962402344
1.4717860416640178,-33.01478576660156,-23.925254821777344,-9.728469848632812
1.4918400416645454,-34.80314636230469,-21.369571685791016,-8.892204284667969
1.5118950416654116,-35.99040222167969,-19.16490364074707,-9.069244384765625
1.5319490416659391,-36.368934631347656,-17.693077087402344,-10.033378601074219
1.5520040416668053,-36.671775817871094,-16.562055587768555,-10.834365844726562
1.5720590416676714,-36.689937591552734,-16.335315704345703,-11.563743591308594
1.592113041668199,-36.756858825683594,-16.530818939208984,-11.422378540039062
1.6121680416617892,-36.550010681152344,-17.572715759277344,-10.030929565429688
1.6322220416623168,-36.39501953125,-19.138402938842773,-8.230064392089844
1.652277041663183,-35.96704864501953,-20.72907257080078,-6.744361877441406
1.6723310416637105,-35.43859100341797,-22.072086334228516,-5.5420989990234375
1.6923860416645766,-34.570106506347656,-23.275604248046875,-5.565948486328125
1.7124410416654428,-33.79671859741211,-24.50649642944336,-5.8660125732421875
1.7324950416659703,-32.8482551574707,-25.63060760498047,-7.20770263671875
1.7525500416668365,-31.652624130249023,-26.719552993774414,-8.372734069824219
1.772604041667364,-30.873687744140625,-27.51936149597168,-9.774787902832031
1.7926590416682302,-29.919113159179688,-28.148334503173828,-10.847129821777344
1.8127140416618204,-29.248409271240234,-28.66911506652832,-11.410926818847656
1.832768041662348,-28.726146697998047,-29.166074752807617,-11.537506103515625
1.852823041663214,-28.271442413330078,-29.732200622558594,-11.31414794921875
1.8728770416637417,-28.306396484375,-29.41256332397461,-11.801292419433594
1.8929320416646078,-29.535686492919922,-27.817058563232422,-12.62335205078125
1.9129860416651354,-31.288978576660156,-25.880962371826172,-11.670669555664062
1.9330410416660015,-32.9370002746582,-24.254966735839844,-10.791709899902344
1.9530950416665291,-33.85982131958008,-22.68935775756836,-10.9969482421875
1.9731500416673953,-34.126285552978516,-21.50509262084961,-12.678260803222656
1.9932050416682614,-33.90088653564453,-20.406606674194336,-14.490867614746094
2.013259041661513,-33.94001007080078,-20.02081298828125,-15.349662780761719
2.033314041662379,-33.856712341308594,-19.250783920288086,-15.975830078125
2.0533680416629068,-33.937660217285156,-19.03034210205078,-16.005142211914062
2.073423041663773,-34.160362243652344,-19.531919479370117,-15.166900634765625
2.0934770416643005,-34.246055603027344,-20.418210983276367,-13.77386474609375
2.1135320416651666,-33.977447509765625,-21.844141006469727,-12.452781677246094
2.1335870416660327,-33.83699035644531,-23.1733455657959,-11.090713500976562
2.1536410416665603,-33.24760055541992,-24.374570846557617,-9.470787048339844
2.1736960416674265,-32.749847412109375,-25.418006896972656,-9.022895812988281
2.193750041667954,-32.138397216796875,-26.275943756103516,-8.493301391601562
2.2138050416615442,-31.705093383789062,-26.806987762451172,-8.619361877441406
2.233859041662072,-30.85067367553711,-27.408077239990234,-9.224647521972656
2.253914041662938,-30.38833999633789,-27.88225555419922,-10.098495483398438
2.2739680416634656,-29.390380859375,-28.39606285095215,-10.677360534667969
2.2940230416643317,-28.585166931152344,-28.893543243408203,-11.9713134765625
2.314078041665198,-27.76419448852539,-29.492931365966797,-12.962089538574219
2.3341320416657254,-27.289772033691406,-29.60989761352539,-13.486053466796875
2.3541870416665915,-28.152912139892578,-28.852027893066406,-13.122146606445312
2.374241041667119,-30.386165618896484,-26.912473678588867,-11.664291381835938
2.3942960416679853,-32.77550506591797,-24.085891723632812,-10.092247009277344
2.414350041661237,-34.920291900634766,-21.54664421081543,-7.695518493652344
2.434404916661151,-35.76053237915039,-20.386722564697266,-6.690887451171875
2.454458916661679,-36.96492004394531,-18.80569839477539,-4.779411315917969
2.474513916662545,-37.42650604248047,-17.653335571289062,-4.0884552001953125
2.4945679166630725,-37.954383850097656,-16.963516235351562,-3.7415618896484375
2.5146229166639387,-38.27129364013672,-16.442028045654297,-3.5191650390625
2.5346769166644663,-38.585575103759766,-15.852193832397461,-3.27569580078125
2.5547319166653324,-38.675045013427734,-15.056188583374023,-3.1080245971679688
2.5747869166661985,-38.94083786010742,-14.691703796386719,-2.7109222412109375
2.594840916666726,-39.096187591552734,-14.877786636352539,-2.2270660400390625
2.6148959166675922,-39.147796630859375,-14.90302848815918,-1.2317276000976562
2.63494991666812,-38.98663330078125,-15.450979232788086,-1.2633132934570312
2.65500491666171,-38.699424743652344,-15.91047477722168,-0.5403518676757812
2.6750589166622376,-38.49614715576172,-16.680757522583008,-0.6833038330078125
2.6951139166631037,-38.352970123291016,-17.185638427734375,-0.5683059692382812
2.7151679166636313,-37.969539642333984,-17.794260025024414,-0.334075927734375
2.7352229166644975,-37.68529510498047,-18.363853454589844,-0.5327224731445312
2.755276916665025,-37.478309631347656,-19.11621856689453,-0.48961639404296875
2.775331916665891,-37.160987854003906,-19.979347229003906,-0.48633575439453125
2.795385916666419,-36.66291809082031,-20.65931510925293,-0.19432830810546875
2.815440916667285,-36.38783264160156,-21.025114059448242,-0.22165679931640625
2.835495916668151,-36.936214447021484,-20.26189422607422,0.74151611328125
2.8555499166614027,-37.008296966552734,-19.83763885498047,1.1783599853515625
2.875604916662269,-37.2630615234375,-19.038593292236328,2.84027099609375
2.8956589166627964,-37.19985580444336,-19.020038604736328,4.058479309082031
2.9157139166636625,-37.103057861328125,-19.33527374267578,4.84295654296875
2.93576791666419,-36.76335906982422,-19.957334518432617,4.979698181152344
2.9558229166650563,-36.71342849731445,-20.01509666442871,4.84039306640625
2.975876916665584,-36.9322395324707,-19.779525756835938,4.6529693603515625
2.99593191666645,-37.25246047973633,-19.389514923095703,3.84051513671875
3.0159859166669776,-37.402984619140625,-19.06979751586914,3.1605148315429688
3.0360409166678437,-37.243709564208984,-19.46475601196289,2.488922119140625
3.0560949166683713,-36.90263366699219,-20.247974395751953,1.9081344604492188
3.0761499166619615,-36.552635192871094,-21.477779388427734,0.8552322387695312
3.096203916662489,-35.913414001464844,-22.452686309814453,-1.09088134765625
3.116258916663355,-35.297393798828125,-23.145572662353516,-3.0786209106445312
3.136312916663883,-34.429107666015625,-24.047332763671875,-5.499168395996094
3.156367916664749,-33.68962478637695,-24.120716094970703,-7.614105224609375
3.1764219166652765,-33.32958984375,-24.269329071044922,-10.089447021484375
3.1964769166661426,-32.49142074584961,-23.997520446777344,-12.237762451171875
3.2165309166666702,-31.472450256347656,-23.600563049316406,-15.396797180175781
3.2365859166675364,-29.94586181640625,-23.350540161132812,-18.510757446289062
3.2566409166611265,-27.851970672607422,-22.370101928710938,-22.29936981201172
3.276694916661654,-26.794889450073242,-21.701587677001953,-24.28154754638672
3.2967499166625203,-24.336078643798828,-19.668054580688477,-27.859954833984375
3.316803916663048,-22.745643615722656,-17.318336486816406,-30.623992919921875
3.336858916663914,-22.846416473388672,-15.236635208129883,-31.302734375
3.3569129166644416,-24.18245506286621,-13.854446411132812,-31.120071411132812
3.3769679166653077,-25.85443687438965,-12.886377334594727,-29.952255249023438
3.3970219166658353,-27.153003692626953,-12.788057327270508,-28.882736206054688
3.4170769166667014,-28.195491790771484,-13.282052993774414,-27.803359985351562
3.437130791666277,-29.124649047851562,-14.268207550048828,-26.39179229736328
3.4571857916671433,-30.179521560668945,-15.908289909362793,-24.366790771484375
3.477239791667671,-31.218582153320312,-17.529865264892578,-21.952369689941406
3.497294791661261,-32.162384033203125,-19.48278045654297,-19.05841827392578
3.5173487916617887,-32.704254150390625,-21.331531524658203,-16.050811767578125
3.537403791662655,-33.10838317871094,-23.130123138427734,-13.138420104980469
3.5574577916631824,-32.85777282714844,-24.660194396972656,-10.365913391113281
3.5775127916640486,-32.714210510253906,-25.548763275146484,-8.131538391113281
3.597566791664576,-32.46699523925781,-26.298871994018555,-7.113800048828125
3.6176217916654423,-32.39176559448242,-26.546226501464844,-6.210052490234375
3.63767579166597,-32.5413703918457,-26.386152267456055,-6.2672271728515625
3.657730791666836,-32.64519500732422,-26.068941116333008,-6.810821533203125
3.6777847916673636,-32.67769241333008,-25.84102439880371,-7.365119934082031
3.6978397916682297,-32.635074615478516,-25.54102325439453,-7.409370422363281
3.7178937916614814,-32.572410583496094,-25.22159767150879,-7.787071228027344
3.7379487916623475,-32.809730529785156,-24.944156646728516,-8.228858947753906
3.758002791662875,-33.08391571044922,-24.409574508666992,-8.418670654296875
3.7780577916637412,-33.45155715942383,-23.621204376220703,-9.103012084960938
3.798111791664269,-34.01198959350586,-22.210336685180664,-10.215965270996094
3.818166791665135,-34.51522445678711,-20.533061981201172,-11.548797607421875
3.8382207916656625,-35.06980895996094,-19.68404769897461,-11.30426025390625
3.85827479166619,-35.61267852783203,-19.440139770507812,-9.967536926269531
3.8783297916670563,-36.03080749511719,-19.72610855102539,-8.706649780273438
3.898383791667584,-36.221092224121094,-19.716882705688477,-8.76318359375
3.918438791661174,-36.51345443725586,-19.061756134033203,-8.8140869140625
3.9384927916617016,-36.812156677246094,-18.22601890563965,-9.468849182128906
3.9585477916625678,-37.22738265991211,-16.95321273803711,-9.888099670410156
3.9786017916630954,-37.55365753173828,-15.992254257202148,-10.072425842285156
3.9986567916639615,-38.011993408203125,-15.188690185546875,-10.429130554199219
4.018710791664489,-38.35325622558594,-14.374486923217773,-10.290817260742188
4.038765791665355,-38.39392852783203,-13.962411880493164,-9.884201049804688
4.058819791665883,-38.81168746948242,-13.5509033203125,-9.538475036621094
4.078874791666749,-39.10880661010742,-13.164815902709961,-9.33636474609375
4.0989287916672765,-39.13371658325195,-12.700122833251953,-8.657546997070312
4.118983791668143,-39.20880889892578,-12.529003143310547,-8.581573486328125
4.139037791661394,-39.408447265625,-11.656513214111328,-8.800392150878906
4.15909279166226,-39.42060470581055,-11.085115432739258,-8.355819702148438
4.179146791662788,-39.50056838989258,-10.420391082763672,-8.709007263183594
4.199201791663654,-39.45853805541992,-9.944055557250977,-8.497825622558594
4.219255791664182,-39.681087493896484,-9.528547286987305,-8.250267028808594
4.239310791665048,-39.70488357543945,-8.984272003173828,-8.164779663085938
4.2593647916655755,-39.645668029785156,-8.247249603271484,-8.425682067871094
4.279418791666103,-39.86089324951172,-7.432104110717773,-8.9127197265625
4.299473791666969,-39.96651840209961,-6.436122894287109,-8.665153503417969
4.319527791667497,-40.01894760131836,-5.646068572998047,-8.589118957519531
4.339582791668363,-40.0598030090332,-5.506294250488281,-8.814163208007812
4.3596367916616146,-39.95940399169922,-6.098260879516602,-8.958106994628906
4.379691791662481,-39.65178298950195,-7.278205871582031,-9.353759765625
4.399745791663008,-39.55010223388672,-8.463298797607422,-9.323455810546875
4.419800791663874,-39.59392166137695,-9.400245666503906,-8.74163818359375
4.439855041666306,-39.563514709472656,-10.429000854492188,-7.668601989746094
4.459910041667172,-39.66044235229492,-11.518684387207031,-6.873970031738281
4.479964041667699,-39.48263931274414,-12.553478240966797,-6.076904296875
4.5000190416612895,-39.40856170654297,-13.731019973754883,-5.2969970703125
4.520073041661817,-39.18540573120117,-14.614023208618164,-4.879722595214844
4.540127041662345,-39.05998229980469,-14.893688201904297,-4.353919982910156
4.560182041663211,-38.78865051269531,-15.934640884399414,-4.1795501708984375
4.580236041663738,-38.364952087402344,-17.008342742919922,-3.8270797729492188
4.600291041664605,-38.01997375488281,-17.948829650878906,-3.7209548950195312
4.620345041665132,-37.5723876953125,-18.708356857299805,-3.6556930541992188
4.640400041665998,-37.37549591064453,-19.361637115478516,-3.1832504272460938
4.660454041666526,-37.21367645263672,-19.770957946777344,-3.0842971801757812
4.680509041667392,-37.29513168334961,-19.621999740600586,-2.6988601684570312
4.70056304166792,-37.2128791809082,-19.40247917175293,-1.978912353515625
4.72061804166151,-37.658912658691406,-18.83182144165039,-0.5545196533203125
4.740672041662037,-37.86395263671875,-17.82560157775879,2.4297103881835938
4.760726041662565,-38.08182907104492,-16.39408302307129,5.50787353515625
4.780781041663431,-38.48918151855469,-14.118812561035156,7.543792724609375
4.800835041663959,-39.17833709716797,-11.755390167236328,8.086196899414062
4.820890041664825,-39.49807357788086,-10.399276733398438,7.473716735839844
4.840944041665352,-39.894596099853516,-9.623767852783203,7.35992431640625
4.8609990416662185,-39.98787307739258,-9.806390762329102,6.975128173828125
4.881053041666746,-40.171913146972656,-9.827980041503906,6.541069030761719
4.901107041667274,-40.20831298828125,-9.853450775146484,5.698089599609375
4.92116204166814,-40.29104232788086,-10.029233932495117,5.263084411621094
4.9412160416613915,-40.41953659057617,-9.830785751342773,5.0984649658203125
4.961271041662258,-40.4460334777832,-9.880203247070312,4.703422546386719
4.981325041662785,-40.5380973815918,-9.6143798828125,4.3712615966796875
5.001380041663651,-40.64250564575195,-9.419963836669922,4.1106414794921875
5.021434041664179,-40.77823257446289,-9.493570327758789,3.0551528930664062
5.041489041665045,-40.94746398925781,-9.452945709228516,1.9912567138671875
5.061543041665573,-40.951568603515625,-9.12059211730957,1.3540573120117188
5.0815970416661,-40.884132385253906,-9.190683364868164,0.19432830810546875
5.101652041666966,-40.85907745361328,-8.9085693359375,-0.6549224853515625
5.121706041667494,-40.7552604675293,-9.106636047363281,-1.70538330078125
5.14176104166836,-40.49314498901367,-9.543859481811523,-2.1048202514648438
5.161815041661612,-40.39253616333008,-9.928136825561523,-2.5614776611328125
5.181870041662478,-40.055381774902344,-10.641990661621094,-2.971099853515625
5.2019240416630055,-39.792137145996094,-11.359430313110352,-3.1821136474609375
5.221978041663533,-39.65283203125,-12.022613525390625,-2.9948272705078125
