"Time (s)","X (µT)","Y (µT)","Z (µT)"
0.022973208331677597,-6.805520057678223,-14.15353012084961,-50.18885803222656
0.04302420833846554,-7.166865348815918,-13.658989906311035,-50.14143371582031
0.06307520833797753,-8.073637008666992,-12.959297180175781,-50.553077697753906
0.08312620833748952,-8.799161911010742,-12.062679290771484,-50.649330139160156
0.10317620833666297,-9.469149589538574,-11.331586837768555,-50.78362274169922
0.12322720833617495,-9.919587135314941,-11.059181213378906,-50.767860412597656
0.14327820833568694,-9.906464576721191,-10.803276062011719,-50.80487823486328
0.16332920833519893,-10.07039737701416,-10.721817016601562,-50.90058135986328
0.18337920833437238,-10.164332389831543,-10.25802993774414,-50.82263946533203
0.20343020833388437,-10.5147123336792,-9.78567886352539,-50.534690856933594
0.22348120833339635,-10.79387378692627,-9.512716293334961,-50.60369110107422
0.24353220833290834,-11.134346961975098,-9.012767791748047,-50.73529815673828
0.2635822083320818,-11.712237358093262,-8.454051971435547,-50.56455993652344
0.28363320833886974,-12.063519477844238,-7.777368545532227,-50.46321105957031
0.3036842083383817,-12.609396934509277,-7.082887649536133,-50.50935363769531
0.3237352083378937,-13.053955078125,-6.296808242797852,-50.47368621826172
0.34378520833706716,-13.589473724365234,-5.294744491577148,-50.216331481933594
0.36383620833657915,-13.6939115524292,-4.888742446899414,-50.24394226074219
0.38388720833609113,-14.03833293914795,-3.3791427612304688,-50.09600830078125
0.4039382083356031,-14.265631675720215,-1.5656585693359375,-49.779083251953125
0.4239892083351151,-14.016870498657227,0.5430355072021484,-49.817955017089844
0.44403920833428856,-13.799934387207031,2.999195098876953,-49.855796813964844
0.46409020833380055,-13.088672637939453,5.388467788696289,-49.689292907714844
0.48414120833331253,-11.76136589050293,8.089094161987305,-49.13660430908203
0.5041922083328245,-10.456304550170898,9.84835433959961,-49.151336669921875
0.524242208331998,-8.507755279541016,10.624622344970703,-49.371849060058594
0.5442932083387859,-6.903878211975098,10.823448181152344,-49.3968505859375
0.5643446250032866,-5.493204116821289,10.11324691772461,-49.359832763671875
0.5843956250027986,-4.40205192565918,9.252452850341797,-49.92829895019531
0.6044456250019721,-3.8929624557495117,8.87275505065918,-49.81988525390625
0.6244966250014841,-3.3377561569213867,9.051839828491211,-49.959320068359375
0.644547625000996,-2.567254066467285,9.765504837036133,-49.92591857910156
0.664598625000508,-1.6045093536376953,10.617332458496094,-49.426971435546875
0.68464962500002,-0.572850227355957,11.446109771728516,-49.693939208984375
0.7046996249991935,0.17591476440429688,11.957550048828125,-49.412193298339844
0.7247506249987055,0.1637420654296875,12.248897552490234,-49.303001403808594
0.7448016250054934,-0.6768598556518555,12.495521545410156,-49.126304626464844
0.7648526250050054,-1.6956748962402344,12.905025482177734,-49.349037170410156
0.7849026250041788,-2.158860206604004,12.997005462646484,-48.962066650390625
0.8049536250036908,-3.302885055541992,13.452465057373047,-48.519195556640625
0.8250046250032028,-3.868685722351074,14.122215270996094,-48.25055694580078
0.8450556250027148,-3.621048927307129,15.606075286865234,-47.553062438964844
0.8651066250022268,-2.236933708190918,17.43277931213379,-46.96368408203125
0.8851566250014002,-0.23894977569580078,19.412097930908203,-46.11567687988281
0.9052076250009122,1.2097806930541992,21.476152420043945,-44.80308532714844
0.9252586250004242,1.4721975326538086,23.005109786987305,-43.79035186767578
0.9453096249999362,1.0596332550048828,24.139026641845703,-43.38824462890625
0.9653606249994482,0.9227447509765625,26.118141174316406,-42.500389099121094
0.9854106249986216,0.6683387756347656,28.159351348876953,-40.607032775878906
1.0054616250054096,-0.3225555419921875,29.9893856048584,-39.30406951904297
1.0255126250049216,-1.7600765228271484,31.163597106933594,-37.849632263183594
1.0455636250044336,-3.073452949523926,31.767494201660156,-37.45838165283203
1.065613625003607,-4.924947738647461,32.07229995727539,-37.12860870361328
1.085664625003119,-6.787881851196289,31.900964736938477,-36.833953857421875
1.105715625002631,-8.508345603942871,31.96674346923828,-36.4803466796875
1.125766625002143,-10.296463966369629,32.46299362182617,-35.70558166503906
1.145817625001655,-12.044660568237305,32.459625244140625,-35.05718994140625
1.1658676250008284,-13.49948787689209,32.21726989746094,-34.99005889892578
1.1859186250003404,-14.65689468383789,31.804075241088867,-34.688568115234375
1.2059696249998524,-15.247936248779297,31.5678653717041,-34.80668640136719
1.2260206249993644,-16.041358947753906,31.374347686767578,-34.61126708984375
1.2460716249988764,-17.077590942382812,30.82352638244629,-34.98707580566406
1.2661216250053258,-18.142799377441406,30.446239471435547,-34.60041046142578
1.2861726250048378,-18.795074462890625,29.86703872680664,-34.376548767089844
1.3062236250043497,-19.911739349365234,29.761945724487305,-33.91997528076172
1.3262746250038617,-20.939319610595703,29.604265213012695,-33.36009216308594
1.3463256250033737,-21.384254455566406,29.952022552490234,-33.03251647949219
1.3663756250025472,-21.26709747314453,30.300182342529297,-32.70880126953125
1.3864266250020592,-21.3212890625,30.726329803466797,-32.560630798339844
1.4064776250015711,-21.987140655517578,30.957202911376953,-32.113677978515625
1.4265286250010831,-23.026439666748047,31.56884002685547,-30.42076873779297
1.4465796250005951,-23.722991943359375,32.38957977294922,-28.933265686035156
1.4666296249997686,-22.898590087890625,33.22179412841797,-28.764686584472656
1.4866806249992806,-22.019577026367188,33.58211135864258,-29.223106384277344
1.5067316249987925,-21.54546356201172,33.66786575317383,-29.05451202392578
1.5267826249983045,-21.81675910949707,34.1500358581543,-28.40966033935547
1.5468336250050925,-21.685808181762695,34.58087921142578,-28.051910400390625
1.5668838333367603,-21.20397186279297,34.467018127441406,-28.644760131835938
1.5869348333362723,-20.560813903808594,34.47583770751953,-29.461257934570312
1.6069858333357843,-19.754467010498047,35.088531494140625,-29.158981323242188
1.6270368333352963,-19.329132080078125,35.607887268066406,-28.80425262451172
1.6470878333348082,-18.649106979370117,37.36432647705078,-26.96026611328125
1.6671378333339817,-17.942800521850586,39.52672576904297,-23.87249755859375
1.6871888333334937,-16.73462677001953,41.8582649230957,-20.837440490722656
1.7072398333330057,-14.759644508361816,43.85237121582031,-17.772186279296875
1.7272908333325176,-12.775715827941895,45.129722595214844,-16.429710388183594
1.7473418333320296,-11.708463668823242,45.71760559082031,-15.4833984375
1.7673928333388176,-11.535654067993164,45.83415222167969,-15.569007873535156
1.787442833337991,-11.66319751739502,45.57847595214844,-16.691314697265625
1.807493833337503,-11.721245765686035,44.796142578125,-18.91815948486328
1.827544833337015,-11.212728500366211,44.015419006347656,-21.991111755371094
1.847595833336527,-10.9810209274292,43.067779541015625,-24.271347045898438
1.867646833336039,-11.044130325317383,42.39717102050781,-25.81231689453125
1.8876968333352124,-11.247678756713867,42.065208435058594,-26.805007934570312
1.9077478333347244,-11.561247825622559,41.54352951049805,-27.15125274658203
1.9277988333342364,-12.12627124786377,41.342708587646484,-27.915550231933594
1.9478498333337484,-12.863917350769043,40.76915740966797,-28.780899047851562
1.9679008333332604,-13.41367244720459,40.089012145996094,-29.6802978515625
1.9879508333324338,-13.680549621582031,39.89406204223633,-30.210861206054688
2.008001833331946,-13.768823623657227,40.10210037231445,-29.991744995117188
2.0280528333387338,-13.672740936279297,40.53116226196289,-29.837799072265625
2.0481038333382457,-13.65924072265625,40.76900863647461,-29.351478576660156
2.0681548333377577,-13.276338577270508,41.19834899902344,-29.135482788085938
2.0882058333372697,-13.385456085205078,41.19850158691406,-29.42237091064453
2.108255833336443,-13.724136352539062,40.33051300048828,-30.397064208984375
2.128306833335955,-15.242326736450195,39.02378845214844,-31.667381286621094
2.148357833335467,-16.900516510009766,37.77899169921875,-32.276206970214844
2.168408833334979,-18.49457550048828,36.9550895690918,-32.566749572753906
2.188459833334491,-20.13758087158203,36.230472564697266,-32.564910888671875
2.208510833334003,-21.41797637939453,35.901336669921875,-32.145225524902344
2.2285608333331766,-22.1202392578125,36.418052673339844,-31.262367248535156
2.2486118333326885,-22.277360916137695,37.44264221191406,-29.87779998779297
2.2686628333322005,-22.741697311401367,38.14543914794922,-28.575218200683594
2.2887138333317125,-23.70193099975586,38.38941192626953,-27.661544799804688
2.3087648333385005,-24.74959945678711,38.72336196899414,-26.78124237060547
2.3288158333380125,-25.306861877441406,39.218936920166016,-25.4769287109375
2.348865833337186,-25.677513122558594,39.5508918762207,-24.78912353515625
2.368916833336698,-25.678682327270508,39.867557525634766,-23.93988037109375
2.38896783333621,-25.604833602905273,40.268184661865234,-23.318206787109375
2.409018833335722,-25.94708251953125,40.707908630371094,-22.807907104492188
2.429069833335234,-25.88829803466797,40.95536804199219,-21.842323303222656
2.449120833334746,-25.54653549194336,41.399314880371094,-21.873573303222656
2.4691708333339193,-25.44070816040039,41.628509521484375,-21.730026245117188
2.4892218333334313,-25.174970626831055,41.874855041503906,-22.08043670654297
2.5092728333329433,-24.849443435668945,41.76670837402344,-22.35808563232422
2.5293238333324553,-24.609289169311523,41.4912109375,-23.458770751953125
2.5493748333319672,-24.220630645751953,41.089012145996094,-24.30095672607422
2.5694249583320925,-23.512958526611328,40.899009704589844,-25.328933715820312
2.589474958338542,-22.870330810546875,41.07119369506836,-25.821548461914062
2.609525958338054,-21.88654327392578,41.45940017700195,-26.30951690673828
2.629576958337566,-21.718751907348633,41.834991455078125,-25.847412109375
2.649627958337078,-22.306665420532227,41.560813903808594,-25.509613037109375
2.66967895833659,-23.394561767578125,41.71257781982422,-24.61602783203125
2.689729958336102,-24.601654052734375,41.70610809326172,-23.238319396972656
2.709780958335614,-25.420146942138672,41.671630859375,-22.641220092773438
2.7298309583347873,-26.203922271728516,41.247947692871094,-22.793067932128906
2.7498819583342993,-26.761520385742188,40.956634521484375,-22.996231079101562
2.7699329583338113,-26.80797576904297,40.631309509277344,-23.72686004638672
2.7899839583333232,-26.978130340576172,40.26152801513672,-24.835357666015625
2.8100349583328352,-26.923328399658203,39.707489013671875,-25.98724365234375
2.830085958332347,-26.575586318969727,39.05659484863281,-27.293045043945312
2.8501359583387966,-26.125593185424805,38.736427307128906,-28.69817352294922
2.8701869583383086,-25.96196746826172,38.38153839111328,-30.00018310546875
2.8902379583378206,-25.72118377685547,38.29974365234375,-30.75189971923828
2.9102889583373326,-24.951457977294922,38.21905517578125,-31.817115783691406
2.9303399583368446,-24.014434814453125,38.17198944091797,-32.918251037597656
2.9503909583363566,-23.138839721679688,38.253509521484375,-33.732391357421875
2.9704419583358685,-22.53726577758789,38.606666564941406,-34.193260192871094
2.990491958335042,-22.03076934814453,38.76300048828125,-34.44340515136719
3.010542958334554,-21.746688842773438,39.35133361816406,-34.25591278076172
3.030593958334066,-21.75554847717285,39.853111267089844,-33.746337890625
3.050644958333578,-21.38739585876465,40.876922607421875,-33.11622619628906
3.07069595833309,-20.952960968017578,41.58557891845703,-32.443824768066406
3.090746958332602,-20.899150848388672,41.82228088378906,-32.187477111816406
3.110797958332114,-20.751487731933594,42.04215621948242,-32.42717742919922
3.1308479583385633,-20.59151840209961,41.97587966918945,-32.919395446777344
3.1508989583380753,-19.77096939086914,41.722408294677734,-33.604225158691406
3.1709499583375873,-18.76332664489746,41.507389068603516,-34.772926330566406
3.1910009583370993,-17.62489891052246,41.37860870361328,-35.9586181640625
3.2110519583366113,-16.64212989807129,40.999778747558594,-37.288780212402344
3.2311029583361233,-15.884367942810059,40.45282745361328,-38.47813415527344
3.2511539583356353,-15.296942710876465,40.36717224121094,-39.015174865722656
3.2712039583348087,-15.164838790893555,40.189544677734375,-39.35536193847656
3.2912549583343207,-15.617591857910156,40.60150909423828,-38.811431884765625
3.3113059583338327,-15.766021728515625,40.935035705566406,-38.459571838378906
3.3313569583333447,-16.782901763916016,41.47309112548828,-37.976890563964844
3.3514079583328567,-18.194496154785156,41.62065887451172,-37.140174865722656
3.3714589583323686,-19.99370574951172,41.9149169921875,-36.297706604003906
3.3915099583318806,-21.215932846069336,42.13603210449219,-35.64116668701172
3.4115609583386686,-21.984121322631836,42.32429504394531,-35.33075714111328
3.431610958337842,-22.165849685668945,42.305023193359375,-35.29719543457031
3.451661958337354,-22.62005043029785,42.35392761230469,-35.35633850097656
3.471712958336866,-22.71001625061035,42.29689025878906,-35.559349060058594
3.491763958336378,-23.04762840270996,42.3009033203125,-35.820411682128906
3.51181495833589,-23.337358474731445,42.30107116699219,-36.20600128173828
3.531865958335402,-23.60418128967285,41.97657012939453,-36.541404724121094
3.551916958334914,-23.789613723754883,42.296875,-36.316429138183594
3.571967958334426,-24.019983291625977,42.29033660888672,-36.932586669921875
3.5920179583335994,-24.28575325012207,42.20349884033203,-36.744964599609375
3.6120689583331114,-24.607824325561523,42.094932556152344,-36.88140106201172
3.6321199583326234,-24.87767791748047,41.84353256225586,-37.208648681640625
3.6521709583321353,-25.23123550415039,41.608524322509766,-37.754798889160156
3.6722219583316473,-25.253662109375,41.565181732177734,-37.97511291503906
3.6922729583384353,-25.230117797851562,41.515438079833984,-37.83195495605469
3.7123239583379473,-24.921871185302734,41.53837203979492,-38.028076171875
3.7323749583374592,-24.80453109741211,41.85098648071289,-38.06909942626953
3.7524249583366327,-24.56790542602539,42.214176177978516,-37.62831115722656
3.7724759583361447,-24.44375991821289,42.34871292114258,-37.68556213378906
3.7925269583356567,-24.312416076660156,42.39479446411133,-37.62628936767578
3.8125779583351687,-24.109962463378906,42.21872329711914,-37.69158935546875
3.8326289583346806,-23.834915161132812,41.691471099853516,-38.36692810058594
3.8526799583341926,-23.44049072265625,41.124027252197266,-39.516090393066406
3.8727309583337046,-23.213134765625,40.86400604248047,-40.428565979003906
3.8927819583332166,-22.986934661865234,40.395774841308594,-41.06684875488281
3.91283195833239,-22.7406063079834,39.64946746826172,-41.809417724609375
3.932882958331902,-22.789480209350586,39.17253112792969,-42.352333068847656
3.95293395833869,-23.05660057067871,38.83018493652344,-42.66204071044922
3.972984958338202,-23.258371353149414,38.62830352783203,-42.574195861816406
3.993035958337714,-23.032333374023438,38.435340881347656,-42.52819061279297
4.013086958337226,-22.95453643798828,38.38946533203125,-43.05840301513672
4.033137958336738,-23.21796417236328,37.96192169189453,-43.433448791503906
4.05318895833625,-23.568485260009766,37.07279968261719,-43.8277587890625
4.073239958335762,-24.690805435180664,35.753944396972656,-44.751914978027344
4.093290958335274,-25.903366088867188,33.89500045776367,-45.74345397949219
4.113340958334447,-27.496850967407227,31.569856643676758,-46.620452880859375
4.133391958333959,-28.51144027709961,29.34246253967285,-47.67217254638672
4.153442958333471,-28.92104721069336,28.459949493408203,-48.13774108886719
4.173493958332983,-29.46181869506836,27.301105499267578,-48.64921569824219
4.193544958332495,-29.126480102539062,26.18699073791504,-49.82893371582031
4.213595958332007,-28.498348236083984,24.9173641204834,-51.152923583984375
4.233646958338795,-27.63454818725586,24.06345558166504,-51.817054748535156
4.253697958338307,-27.153106689453125,23.40577507019043,-52.562171936035156
4.273748958337819,-26.90645408630371,21.909589767456055,-53.090484619140625
4.293798958336993,-26.083723068237305,20.783796310424805,-53.874786376953125
4.313849958336505,-24.698917388916016,20.209705352783203,-55.093353271484375
4.333900958336017,-22.378738403320312,20.294553756713867,-55.981719970703125
4.353951958335529,-20.356483459472656,20.54880142211914,-56.54730987548828
4.374002958335041,-18.565956115722656,20.785825729370117,-57.37487030029297
4.394053958334553,-16.77585220336914,20.546621322631836,-57.782989501953125
4.414104958334065,-15.695629119873047,20.109159469604492,-58.16123962402344
4.434155958333577,-14.561956405639648,19.63302230834961,-58.620941162109375
4.4542069583330886,-14.067123413085938,18.892837524414062,-58.880645751953125
4.4742579583326005,-14.754172325134277,18.13100814819336,-59.06969451904297
4.494307958331774,-15.414917945861816,17.864219665527344,-59.19702911376953
4.514358958338562,-15.574769020080566,17.56814193725586,-59.15064239501953
4.534409958338074,-15.46800422668457,17.4954776763916,-58.957801818847656
4.554460958337586,-15.157966613769531,17.664457321166992,-59.133262634277344
4.574512125000183,-15.143043518066406,17.768022537231445,-59.06609344482422
4.594563124999695,-15.042438507080078,17.479352951049805,-59.27953338623047
4.614614124999207,-15.536664962768555,17.22438621520996,-59.42931365966797
4.634665124998719,-15.574592590332031,17.192033767700195,-59.413368225097656
4.654716125005507,-15.445945739746094,17.261629104614258,-59.28948211669922
4.674767125005019,-14.911088943481445,16.75446128845215,-59.612693786621094
4.694817125004192,-13.998228073120117,15.635461807250977,-59.971031188964844
4.714868125003704,-13.459091186523438,14.770875930786133,-60.31458282470703
4.734919125003216,-13.308210372924805,14.613195419311523,-60.66454315185547
4.754970125002728,-12.683183670043945,14.723024368286133,-60.760704040527344
4.77502112500224,-12.804183959960938,15.406133651733398,-60.391578674316406
4.795072125001752,-13.102248191833496,16.384714126586914,-60.24126434326172
4.815123125001264,-13.762221336364746,17.30430030822754,-59.459922790527344
4.835174125000776,-14.643926620483398,18.581783294677734,-59.0826416015625
4.855225125000288,-15.857843399047852,20.31268310546875,-58.409637451171875
4.8752761249998,-16.904420852661133,21.936574935913086,-57.493568420410156
4.895327124999312,-18.142528533935547,23.20987319946289,-56.85126495361328
4.915378124998824,-19.548505783081055,24.109554290771484,-55.87614440917969
4.935428125005274,-20.409482955932617,25.147079467773438,-54.6746826171875
4.955479125004786,-20.867229461669922,26.119449615478516,-54.236846923828125
4.975530125004298,-21.175426483154297,26.634716033935547,-53.651611328125
4.99558112500381,-21.4249267578125,26.82138442993164,-53.8822021484375
5.015632125003322,-21.775714874267578,26.834854125976562,-53.5472412109375
5.0356831250028335,-21.599040985107422,26.909469604492188,-53.61705017089844
5.0557341250023455,-21.445728302001953,27.05953598022461,-53.79362487792969
5.0757851250018575,-21.310806274414062,27.127002716064453,-53.96650695800781
5.0958361250013695,-20.637649536132812,27.287315368652344,-54.05436706542969
5.1158871250008815,-20.339733123779297,27.403297424316406,-54.19529724121094
5.1359381250003935,-19.98532485961914,27.57403564453125,-54.3204345703125
5.1559891249999055,-19.843101501464844,27.888578414916992,-54.26842498779297
5.1760401249994175,-19.66356658935547,28.505884170532227,-54.031639099121094
5.196090124998591,-19.536651611328125,29.02215003967285,-53.63188934326172
5.216141125005379,-19.554462432861328,29.7304630279541,-53.34593963623047
5.236192125004891,-19.68157196044922,30.463314056396484,-53.04167938232422
5.256243125004403,-19.38735580444336,30.907215118408203,-52.98577117919922
